#  Pair interaction function for Fe:
#  R (A) Energy (eV) 
0.000000000000000E+00 9.734917985852049E+03
5.300000000000000E-04 9.680696183864135E+03
1.060000000000000E-03 9.626984090279440E+03
1.590000000000000E-03 9.573775211170208E+03
2.120000000000000E-03 9.521063145451648E+03
2.650000000000000E-03 9.468841583505648E+03
3.180000000000000E-03 9.417104305825100E+03
3.710000000000000E-03 9.365845181678545E+03
4.240000000000000E-03 9.315058167794821E+03
4.770000000000000E-03 9.264737307067413E+03
5.300000000000000E-03 9.214876727278239E+03
5.830000000000000E-03 9.165470639840514E+03
6.359999999999999E-03 9.116513338560491E+03
6.889999999999999E-03 9.067999198417720E+03
7.420000000000000E-03 9.019922674363575E+03
7.950000000000000E-03 8.972278300137805E+03
8.480000000000000E-03 8.925060687102776E+03
9.009999999999999E-03 8.878264523095198E+03
9.540000000000000E-03 8.831884571295035E+03
1.007000000000000E-02 8.785915669111339E+03
1.060000000000000E-02 8.740352727084810E+03
1.113000000000000E-02 8.695190727806736E+03
1.166000000000000E-02 8.650424724854156E+03
1.219000000000000E-02 8.606049841740947E+03
1.272000000000000E-02 8.562061270884622E+03
1.325000000000000E-02 8.518454272588586E+03
1.378000000000000E-02 8.475224174039629E+03
1.431000000000000E-02 8.432366368320441E+03
1.484000000000000E-02 8.389876313436871E+03
1.537000000000000E-02 8.347749531359779E+03
1.590000000000000E-02 8.305981607081205E+03
1.643000000000000E-02 8.264568187684670E+03
1.696000000000000E-02 8.223504981429389E+03
1.749000000000000E-02 8.182787756848174E+03
1.802000000000000E-02 8.142412341858859E+03
1.855000000000000E-02 8.102374622888984E+03
1.908000000000000E-02 8.062670544013602E+03
1.961000000000000E-02 8.023296106105975E+03
2.014000000000000E-02 7.984247366000951E+03
2.067000000000000E-02 7.945520435670895E+03
2.120000000000000E-02 7.907111481413902E+03
2.173000000000000E-02 7.869016723054189E+03
2.226000000000000E-02 7.831232433154402E+03
2.279000000000000E-02 7.793754936239734E+03
2.332000000000000E-02 7.756580608033632E+03
2.385000000000000E-02 7.719705874704919E+03
2.438000000000000E-02 7.683127212126195E+03
2.491000000000000E-02 7.646841145143289E+03
2.544000000000000E-02 7.610844246855670E+03
2.597000000000000E-02 7.575133137907574E+03
2.650000000000000E-02 7.539704485789758E+03
2.703000000000000E-02 7.504555004151657E+03
2.756000000000000E-02 7.469681452123848E+03
2.809000000000000E-02 7.435080633650612E+03
2.862000000000000E-02 7.400749396832480E+03
2.915000000000000E-02 7.366684633278609E+03
2.968000000000000E-02 7.332883277468801E+03
3.021000000000000E-02 7.299342306125083E+03
3.074000000000000E-02 7.266058737592663E+03
3.127000000000000E-02 7.233029631230114E+03
3.180000000000000E-02 7.200252086808687E+03
3.233000000000000E-02 7.167723243920577E+03
3.286000000000000E-02 7.135440281396033E+03
3.339000000000000E-02 7.103400416729157E+03
3.392000000000000E-02 7.071600905512292E+03
3.445000000000000E-02 7.040039040878834E+03
3.498000000000000E-02 7.008712152954376E+03
3.551000000000000E-02 6.977617608316017E+03
3.604000000000000E-02 6.946752809459782E+03
3.657000000000000E-02 6.916115194275932E+03
3.710000000000000E-02 6.885702235532157E+03
3.763000000000000E-02 6.855511440364437E+03
3.816000000000000E-02 6.825540349775519E+03
3.869000000000000E-02 6.795786538140866E+03
3.922000000000000E-02 6.766247612721977E+03
3.975000000000000E-02 6.736921213186957E+03
4.028000000000000E-02 6.707805011138251E+03
4.081000000000000E-02 6.678896709647393E+03
4.134000000000000E-02 6.650194042796720E+03
4.187000000000000E-02 6.621694775227897E+03
4.240000000000000E-02 6.593396701697170E+03
4.293000000000000E-02 6.565297646637264E+03
4.346000000000000E-02 6.537395463725783E+03
4.399000000000000E-02 6.509688035460070E+03
4.452000000000000E-02 6.482173272738372E+03
4.505000000000000E-02 6.454849114447271E+03
4.558000000000000E-02 6.427713527055229E+03
4.611000000000000E-02 6.400764504212212E+03
4.664000000000000E-02 6.374000066355270E+03
4.717000000000000E-02 6.347418260319980E+03
4.770000000000000E-02 6.321017158957671E+03
4.823000000000000E-02 6.294794860758379E+03
4.876000000000000E-02 6.268749489479362E+03
4.929000000000000E-02 6.242879193779187E+03
4.982000000000000E-02 6.217182146857247E+03
5.035000000000000E-02 6.191656546098629E+03
5.087999999999999E-02 6.166300612724287E+03
5.141000000000000E-02 6.141112591446396E+03
5.194000000000000E-02 6.116090750128857E+03
5.247000000000000E-02 6.091233379452821E+03
5.300000000000000E-02 6.066538792587216E+03
5.353000000000000E-02 6.042005324864149E+03
5.406000000000000E-02 6.017631333459144E+03
5.459000000000000E-02 5.993415197076133E+03
5.512000000000000E-02 5.969355315637120E+03
5.565000000000000E-02 5.945450109976466E+03
5.618000000000000E-02 5.921698021539712E+03
5.671000000000000E-02 5.898097512086875E+03
5.724000000000000E-02 5.874647063400146E+03
5.776999999999999E-02 5.851345176995947E+03
5.830000000000000E-02 5.828190373841234E+03
5.883000000000000E-02 5.805181194074039E+03
5.936000000000000E-02 5.782316196728148E+03
5.989000000000000E-02 5.759593959461860E+03
6.041999999999999E-02 5.737013078290794E+03
6.095000000000000E-02 5.714572167324619E+03
6.148000000000000E-02 5.692269858507738E+03
6.201000000000000E-02 5.670104801363783E+03
6.254000000000000E-02 5.648075662743910E+03
6.307000000000000E-02 5.626181126578836E+03
6.360000000000000E-02 5.604419893634536E+03
6.412999999999999E-02 5.582790681271571E+03
6.466000000000000E-02 5.561292223207981E+03
6.519000000000000E-02 5.539923269285689E+03
6.572000000000000E-02 5.518682585240376E+03
6.625000000000000E-02 5.497568952474746E+03
6.677999999999999E-02 5.476581167835167E+03
6.730999999999999E-02 5.455718043391609E+03
6.784000000000000E-02 5.434978406220853E+03
6.837000000000000E-02 5.414361098192883E+03
6.890000000000000E-02 5.393864975760474E+03
6.942999999999999E-02 5.373488909751868E+03
6.995999999999999E-02 5.353231785166521E+03
7.049000000000000E-02 5.333092500973882E+03
7.102000000000000E-02 5.313069969915148E+03
7.155000000000000E-02 5.293163118307926E+03
7.207999999999999E-02 5.273370885853822E+03
7.260999999999999E-02 5.253692225448835E+03
7.314000000000000E-02 5.234126102996582E+03
7.367000000000000E-02 5.214671497224271E+03
7.420000000000000E-02 5.195327399501393E+03
7.472999999999999E-02 5.176092813661085E+03
7.525999999999999E-02 5.156966755824150E+03
7.579000000000000E-02 5.137948254225653E+03
7.632000000000000E-02 5.119036349044095E+03
7.685000000000000E-02 5.100230092233097E+03
7.737999999999999E-02 5.081528547355564E+03
7.790999999999999E-02 5.062930789420313E+03
7.844000000000000E-02 5.044435904721086E+03
7.897000000000000E-02 5.026042990677966E+03
7.950000000000000E-02 5.007751155681095E+03
8.003000000000000E-02 4.989559518936731E+03
8.055999999999999E-02 4.971467210315554E+03
8.109000000000000E-02 4.953473370203199E+03
8.162000000000000E-02 4.935577149353016E+03
8.215000000000000E-02 4.917777708740974E+03
8.268000000000000E-02 4.900074219422720E+03
8.320999999999999E-02 4.882465862392717E+03
8.373999999999999E-02 4.864951828445488E+03
8.427000000000000E-02 4.847531318038871E+03
8.480000000000000E-02 4.830203541159302E+03
8.533000000000000E-02 4.812967717189080E+03
8.585999999999999E-02 4.795823074775563E+03
8.638999999999999E-02 4.778768851702319E+03
8.692000000000000E-02 4.761804294762141E+03
8.745000000000000E-02 4.744928659631941E+03
8.798000000000000E-02 4.728141210749481E+03
8.850999999999999E-02 4.711441221191913E+03
8.903999999999999E-02 4.694827972556095E+03
8.957000000000000E-02 4.678300754840676E+03
9.010000000000000E-02 4.661858866329896E+03
9.063000000000000E-02 4.645501613479107E+03
9.115999999999999E-02 4.629228310801952E+03
9.168999999999999E-02 4.613038280759220E+03
9.222000000000000E-02 4.596930853649314E+03
9.275000000000000E-02 4.580905367500327E+03
9.328000000000000E-02 4.564961167963701E+03
9.380999999999999E-02 4.549097608209445E+03
9.433999999999999E-02 4.533314048822878E+03
9.487000000000000E-02 4.517609857702894E+03
9.540000000000000E-02 4.501984409961708E+03
9.593000000000000E-02 4.486437087826068E+03
9.645999999999999E-02 4.470967280539917E+03
9.698999999999999E-02 4.455574384268470E+03
9.752000000000000E-02 4.440257802003697E+03
9.805000000000000E-02 4.425016943471189E+03
9.858000000000000E-02 4.409851225038376E+03
9.910999999999999E-02 4.394760069624095E+03
9.963999999999999E-02 4.379742906609465E+03
1.001700000000000E-01 4.364799171750074E+03
1.007000000000000E-01 4.349928307089443E+03
1.012300000000000E-01 4.335129760873742E+03
1.017600000000000E-01 4.320402987467769E+03
1.022900000000000E-01 4.305747447272131E+03
1.028200000000000E-01 4.291162606641640E+03
1.033500000000000E-01 4.276647937804911E+03
1.038800000000000E-01 4.262202918785101E+03
1.044100000000000E-01 4.247827033321828E+03
1.049400000000000E-01 4.233519770794208E+03
1.054700000000000E-01 4.219280626145022E+03
1.060000000000000E-01 4.205109099805979E+03
1.065300000000000E-01 4.191004697624063E+03
1.070600000000000E-01 4.176966930788956E+03
1.075900000000000E-01 4.162995315761512E+03
1.081200000000000E-01 4.149089374203263E+03
1.086500000000000E-01 4.135248632906955E+03
1.091800000000000E-01 4.121472623728090E+03
1.097100000000000E-01 4.107760883517459E+03
1.102400000000000E-01 4.094112954054645E+03
1.107700000000000E-01 4.080528381982507E+03
1.113000000000000E-01 4.067006718742590E+03
1.118300000000000E-01 4.053547520511494E+03
1.123600000000000E-01 4.040150348138139E+03
1.128900000000000E-01 4.026814767081954E+03
1.134200000000000E-01 4.013540347351951E+03
1.139500000000000E-01 4.000326663446687E+03
1.144800000000000E-01 3.987173294295083E+03
1.150100000000000E-01 3.974079823198103E+03
1.155400000000000E-01 3.961045837771277E+03
1.160700000000000E-01 3.948070929888040E+03
1.166000000000000E-01 3.935154695623910E+03
1.171300000000000E-01 3.922296735201448E+03
1.176600000000000E-01 3.909496652936024E+03
1.181900000000000E-01 3.896754057182357E+03
1.187200000000000E-01 3.884068560281830E+03
1.192500000000000E-01 3.871439778510557E+03
1.197800000000000E-01 3.858867332028199E+03
1.203100000000000E-01 3.846350844827520E+03
1.208400000000000E-01 3.833889944684658E+03
1.213700000000000E-01 3.821484263110113E+03
1.219000000000000E-01 3.809133435300448E+03
1.224300000000000E-01 3.796837100090668E+03
1.229600000000000E-01 3.784594899907288E+03
1.234900000000000E-01 3.772406480722078E+03
1.240200000000000E-01 3.760271492006459E+03
1.245500000000000E-01 3.748189586686566E+03
1.250800000000000E-01 3.736160421098938E+03
1.256100000000000E-01 3.724183654946856E+03
1.261400000000000E-01 3.712258951257295E+03
1.266700000000000E-01 3.700385976338496E+03
1.272000000000000E-01 3.688564399738138E+03
1.277300000000000E-01 3.676793894202113E+03
1.282600000000000E-01 3.665074135633887E+03
1.287900000000000E-01 3.653404803054435E+03
1.293200000000000E-01 3.641785578562756E+03
1.298500000000000E-01 3.630216147296942E+03
1.303800000000000E-01 3.618696197395802E+03
1.309100000000000E-01 3.607225419961035E+03
1.314400000000000E-01 3.595803509019935E+03
1.319700000000000E-01 3.584430161488639E+03
1.325000000000000E-01 3.573105077135873E+03
1.330300000000000E-01 3.561827958547234E+03
1.335600000000000E-01 3.550598511089969E+03
1.340900000000000E-01 3.539416442878255E+03
1.346200000000000E-01 3.528281464738964E+03
1.351500000000000E-01 3.517193290177926E+03
1.356800000000000E-01 3.506151635346654E+03
1.362100000000000E-01 3.495156219009550E+03
1.367400000000000E-01 3.484206762511568E+03
1.372700000000000E-01 3.473302989746338E+03
1.378000000000000E-01 3.462444627124733E+03
1.383300000000000E-01 3.451631403543888E+03
1.388600000000000E-01 3.440863050356647E+03
1.393900000000000E-01 3.430139301341440E+03
1.399200000000000E-01 3.419459892672598E+03
1.404500000000000E-01 3.408824562891063E+03
1.409800000000000E-01 3.398233052875525E+03
1.415100000000000E-01 3.387685105813960E+03
1.420400000000000E-01 3.377180467175569E+03
1.425700000000000E-01 3.366718884683101E+03
1.431000000000000E-01 3.356300108285578E+03
1.436300000000000E-01 3.345923890131392E+03
1.441600000000000E-01 3.335589984541782E+03
1.446900000000000E-01 3.325298147984674E+03
1.452200000000000E-01 3.315048139048904E+03
1.457500000000000E-01 3.304839718418778E+03
1.462800000000000E-01 3.294672648849007E+03
1.468100000000000E-01 3.284546695139977E+03
1.473400000000000E-01 3.274461624113370E+03
1.478700000000000E-01 3.264417204588123E+03
1.484000000000000E-01 3.254413207356720E+03
1.489300000000000E-01 3.244449405161814E+03
1.494600000000000E-01 3.234525572673178E+03
1.499900000000000E-01 3.224641486464960E+03
1.505200000000000E-01 3.214796924993278E+03
1.510500000000000E-01 3.204991668574101E+03
1.515800000000000E-01 3.195225499361453E+03
1.521100000000000E-01 3.185498201325906E+03
1.526400000000000E-01 3.175809560233378E+03
1.531700000000000E-01 3.166159363624225E+03
1.537000000000000E-01 3.156547400792605E+03
1.542300000000000E-01 3.146973462766156E+03
1.547600000000000E-01 3.137437342285919E+03
1.552900000000000E-01 3.127938833786566E+03
1.558200000000000E-01 3.118477733376881E+03
1.563500000000000E-01 3.109053838820518E+03
1.568800000000000E-01 3.099666949517018E+03
1.574100000000000E-01 3.090316866483094E+03
1.579400000000000E-01 3.081003392334159E+03
1.584700000000000E-01 3.071726331266118E+03
1.590000000000000E-01 3.062485489037404E+03
1.595300000000000E-01 3.053280672951259E+03
1.600600000000000E-01 3.044111691838258E+03
1.605900000000000E-01 3.034978356039072E+03
1.611200000000000E-01 3.025880477387459E+03
1.616500000000000E-01 3.016817869193496E+03
1.621800000000000E-01 3.007790346227031E+03
1.627100000000000E-01 2.998797724701363E+03
1.632400000000000E-01 2.989839822257143E+03
1.637700000000000E-01 2.980916457946490E+03
1.643000000000000E-01 2.972027452217328E+03
1.648300000000000E-01 2.963172626897925E+03
1.653600000000000E-01 2.954351805181653E+03
1.658900000000000E-01 2.945564811611941E+03
1.664200000000000E-01 2.936811472067440E+03
1.669500000000000E-01 2.928091613747383E+03
1.674800000000000E-01 2.919405065157142E+03
1.680100000000000E-01 2.910751656093980E+03
1.685400000000000E-01 2.902131217632993E+03
1.690700000000000E-01 2.893543582113245E+03
1.696000000000000E-01 2.884988583124074E+03
1.701300000000000E-01 2.876466055491602E+03
1.706600000000000E-01 2.867975835265412E+03
1.711900000000000E-01 2.859517759705400E+03
1.717200000000000E-01 2.851091667268810E+03
1.722500000000000E-01 2.842697397597443E+03
1.727800000000000E-01 2.834334791505020E+03
1.733100000000000E-01 2.826003690964737E+03
1.738400000000000E-01 2.817703939096963E+03
1.743700000000000E-01 2.809435380157113E+03
1.749000000000000E-01 2.801197859523679E+03
1.754300000000000E-01 2.792991223686413E+03
1.759600000000000E-01 2.784815320234680E+03
1.764900000000000E-01 2.776669997845947E+03
1.770200000000000E-01 2.768555106274434E+03
1.775500000000000E-01 2.760470496339914E+03
1.780800000000000E-01 2.752416019916656E+03
1.786100000000000E-01 2.744391529922516E+03
1.791400000000000E-01 2.736396880308166E+03
1.796700000000000E-01 2.728431926046470E+03
1.802000000000000E-01 2.720496523121997E+03
1.807300000000000E-01 2.712590528520667E+03
1.812600000000000E-01 2.704713800219532E+03
1.817900000000000E-01 2.696866197176698E+03
1.823200000000000E-01 2.689047579321368E+03
1.828500000000000E-01 2.681257807544019E+03
1.833800000000000E-01 2.673496743686702E+03
1.839100000000000E-01 2.665764250533474E+03
1.844400000000000E-01 2.658060191800954E+03
1.849700000000000E-01 2.650384432128984E+03
1.855000000000000E-01 2.642736837071433E+03
1.860300000000000E-01 2.635117273087110E+03
1.865600000000000E-01 2.627525607530785E+03
1.870900000000000E-01 2.619961708644335E+03
1.876200000000000E-01 2.612425445548006E+03
1.881500000000000E-01 2.604916688231779E+03
1.886800000000000E-01 2.597435307546843E+03
1.892100000000000E-01 2.589981175197190E+03
1.897400000000000E-01 2.582554163731307E+03
1.902700000000000E-01 2.575154146533972E+03
1.908000000000000E-01 2.567780997818162E+03
1.913300000000000E-01 2.560434592617056E+03
1.918600000000000E-01 2.553114806776146E+03
1.923900000000000E-01 2.545821516945441E+03
1.929200000000000E-01 2.538554600571770E+03
1.934500000000000E-01 2.531313935891185E+03
1.939800000000000E-01 2.524099401921462E+03
1.945100000000000E-01 2.516910878454689E+03
1.950400000000000E-01 2.509748246049944E+03
1.955700000000000E-01 2.502611386026082E+03
1.961000000000000E-01 2.495500180454592E+03
1.966300000000000E-01 2.488414512152553E+03
1.971600000000000E-01 2.481354264675675E+03
1.976900000000000E-01 2.474319322311429E+03
1.982200000000000E-01 2.467309570072262E+03
1.987500000000000E-01 2.460324893688884E+03
1.992800000000000E-01 2.453365179603666E+03
1.998100000000000E-01 2.446430314964080E+03
2.003400000000000E-01 2.439520187616259E+03
2.008700000000000E-01 2.432634686098605E+03
2.014000000000000E-01 2.425773699635500E+03
2.019300000000000E-01 2.418937118131071E+03
2.024600000000000E-01 2.412124832163051E+03
2.029900000000000E-01 2.405336732976703E+03
2.035200000000000E-01 2.398572712478820E+03
2.040500000000000E-01 2.391832663231801E+03
2.045800000000000E-01 2.385116478447797E+03
2.051100000000000E-01 2.378424051982927E+03
2.056400000000000E-01 2.371755278331564E+03
2.061700000000000E-01 2.365110052620691E+03
2.067000000000000E-01 2.358488270604325E+03
2.072300000000000E-01 2.351889828658007E+03
2.077600000000000E-01 2.345314623773357E+03
2.082900000000000E-01 2.338762553552698E+03
2.088200000000000E-01 2.332233516203736E+03
2.093500000000000E-01 2.325727410534317E+03
2.098800000000000E-01 2.319244135947230E+03
2.104100000000000E-01 2.312783592435089E+03
2.109400000000000E-01 2.306345680575256E+03
2.114700000000000E-01 2.299930301524842E+03
2.120000000000000E-01 2.293537357015758E+03
2.125300000000000E-01 2.287166749349822E+03
2.130600000000000E-01 2.280818381393933E+03
2.135900000000000E-01 2.274492156575289E+03
2.141200000000000E-01 2.268187978876674E+03
2.146500000000000E-01 2.261905752831788E+03
2.151800000000000E-01 2.255645383520640E+03
2.157100000000000E-01 2.249406776564990E+03
2.162400000000000E-01 2.243189838123847E+03
2.167700000000000E-01 2.236994474889015E+03
2.173000000000000E-01 2.230820594080694E+03
2.178300000000000E-01 2.224668103443129E+03
2.183600000000000E-01 2.218536911240314E+03
2.188900000000000E-01 2.212426926251735E+03
2.194200000000000E-01 2.206338057768176E+03
2.199500000000000E-01 2.200270215587560E+03
2.204800000000000E-01 2.194223310010842E+03
2.210100000000000E-01 2.188197251837955E+03
2.215400000000000E-01 2.182191952363788E+03
2.220700000000000E-01 2.176207323374225E+03
2.226000000000000E-01 2.170243277142215E+03
2.231300000000000E-01 2.164299726423898E+03
2.236600000000000E-01 2.158376584454766E+03
2.241900000000000E-01 2.152473764945870E+03
2.247200000000000E-01 2.146591182080071E+03
2.252500000000000E-01 2.140728750508330E+03
2.257800000000000E-01 2.134886385346040E+03
2.263100000000000E-01 2.129064002169401E+03
2.268400000000000E-01 2.123261517011832E+03
2.273700000000000E-01 2.117478846360425E+03
2.279000000000000E-01 2.111715907152435E+03
2.284300000000000E-01 2.105972616771815E+03
2.289600000000000E-01 2.100248893045777E+03
2.294900000000000E-01 2.094544654241407E+03
2.300200000000000E-01 2.088859819062302E+03
2.305500000000000E-01 2.083194306645252E+03
2.310800000000000E-01 2.077548036556956E+03
2.316100000000000E-01 2.071920928790771E+03
2.321400000000000E-01 2.066312903763500E+03
2.326700000000000E-01 2.060723882312215E+03
2.332000000000000E-01 2.055153785691108E+03
2.337300000000000E-01 2.049602535568384E+03
2.342600000000000E-01 2.044070054023179E+03
2.347900000000000E-01 2.038556263542518E+03
2.353200000000000E-01 2.033061087018300E+03
2.358500000000000E-01 2.027584447744319E+03
2.363800000000000E-01 2.022126269413313E+03
2.369100000000000E-01 2.016686476114048E+03
2.374400000000000E-01 2.011264992328430E+03
2.379700000000000E-01 2.005861742928643E+03
2.385000000000000E-01 2.000476653174333E+03
2.390300000000000E-01 1.995109648709795E+03
2.395600000000000E-01 1.989760655561218E+03
