#  Pair interaction function for FeH:
#  R (A) Energy (eV) 
0.000000000000000E+00 3.744199225327711E+02
5.300000000000000E-04 3.728616721194848E+02
1.060000000000000E-03 3.713143761987824E+02
1.590000000000000E-03 3.697779303807264E+02
2.120000000000000E-03 3.682522313915354E+02
2.650000000000000E-03 3.667371770612124E+02
3.180000000000000E-03 3.652326663113095E+02
3.710000000000000E-03 3.637385991428313E+02
4.240000000000000E-03 3.622548766242734E+02
4.770000000000000E-03 3.607814008797947E+02
5.300000000000000E-03 3.593180750775222E+02
5.830000000000000E-03 3.578648034179874E+02
6.359999999999999E-03 3.564214911226910E+02
6.889999999999999E-03 3.549880444227973E+02
7.420000000000000E-03 3.535643705479542E+02
7.950000000000000E-03 3.521503777152383E+02
8.480000000000000E-03 3.507459751182246E+02
9.009999999999999E-03 3.493510729161781E+02
9.540000000000000E-03 3.479655822233667E+02
1.007000000000000E-02 3.465894150984931E+02
1.060000000000000E-02 3.452224845342463E+02
1.113000000000000E-02 3.438647044469690E+02
1.166000000000000E-02 3.425159896664414E+02
1.219000000000000E-02 3.411762559257785E+02
1.272000000000000E-02 3.398454198514422E+02
1.325000000000000E-02 3.385233989533630E+02
1.378000000000000E-02 3.372101116151743E+02
1.431000000000000E-02 3.359054770845547E+02
1.484000000000000E-02 3.346094154636793E+02
1.537000000000000E-02 3.333218476997772E+02
1.590000000000000E-02 3.320426955757952E+02
1.643000000000000E-02 3.307718817011660E+02
1.696000000000000E-02 3.295093295026788E+02
1.749000000000000E-02 3.282549632154540E+02
1.802000000000000E-02 3.270087078740169E+02
1.855000000000000E-02 3.257704893034721E+02
1.908000000000000E-02 3.245402341107776E+02
1.961000000000000E-02 3.233178696761146E+02
2.014000000000000E-02 3.221033241443559E+02
2.067000000000000E-02 3.208965264166280E+02
2.120000000000000E-02 3.196974061419692E+02
2.173000000000000E-02 3.185058937090797E+02
2.226000000000000E-02 3.173219202381647E+02
2.279000000000000E-02 3.161454175728687E+02
2.332000000000000E-02 3.149763182723004E+02
2.385000000000000E-02 3.138145556031453E+02
2.438000000000000E-02 3.126600635318688E+02
2.491000000000000E-02 3.115127767170042E+02
2.544000000000000E-02 3.103726305015292E+02
2.597000000000000E-02 3.092395609053256E+02
2.650000000000000E-02 3.081135046177247E+02
2.703000000000000E-02 3.069943989901357E+02
2.756000000000000E-02 3.058821820287562E+02
2.809000000000000E-02 3.047767923873647E+02
2.862000000000000E-02 3.036781693601934E+02
2.915000000000000E-02 3.025862528748808E+02
2.968000000000000E-02 3.015009834855027E+02
3.021000000000000E-02 3.004223023656823E+02
3.074000000000000E-02 2.993501513017754E+02
3.127000000000000E-02 2.982844726861339E+02
3.180000000000000E-02 2.972252095104426E+02
3.233000000000000E-02 2.961723053591324E+02
3.286000000000000E-02 2.951257044028654E+02
3.339000000000000E-02 2.940853513920939E+02
3.392000000000000E-02 2.930511916506910E+02
3.445000000000000E-02 2.920231710696526E+02
3.498000000000000E-02 2.910012361008692E+02
3.551000000000000E-02 2.899853337509681E+02
3.604000000000000E-02 2.889754115752238E+02
3.657000000000000E-02 2.879714176715366E+02
3.710000000000000E-02 2.869733006744787E+02
3.763000000000000E-02 2.859810097494062E+02
3.816000000000000E-02 2.849944945866378E+02
3.869000000000000E-02 2.840137053956976E+02
3.922000000000000E-02 2.830385928996229E+02
3.975000000000000E-02 2.820691083293347E+02
4.028000000000000E-02 2.811052034180726E+02
4.081000000000000E-02 2.801468303958899E+02
4.134000000000000E-02 2.791939419842117E+02
4.187000000000000E-02 2.782464913904532E+02
4.240000000000000E-02 2.773044323026979E+02
4.293000000000000E-02 2.763677188844353E+02
4.346000000000000E-02 2.754363057693580E+02
4.399000000000000E-02 2.745101480562157E+02
4.452000000000000E-02 2.735892013037275E+02
4.505000000000000E-02 2.726734215255510E+02
4.558000000000000E-02 2.717627651853069E+02
4.611000000000000E-02 2.708571891916597E+02
4.664000000000000E-02 2.699566508934533E+02
4.717000000000000E-02 2.690611080749003E+02
4.770000000000000E-02 2.681705189508254E+02
4.823000000000000E-02 2.672848421619624E+02
4.876000000000000E-02 2.664040367703024E+02
4.929000000000000E-02 2.655280622544949E+02
4.982000000000000E-02 2.646568785052998E+02
5.035000000000000E-02 2.637904458210903E+02
5.087999999999999E-02 2.629287249034058E+02
5.141000000000000E-02 2.620716768525544E+02
5.194000000000000E-02 2.612192631632645E+02
5.247000000000000E-02 2.603714457203852E+02
5.300000000000000E-02 2.595281867946334E+02
5.353000000000000E-02 2.586894490383903E+02
5.406000000000000E-02 2.578551954815431E+02
5.459000000000000E-02 2.570253895273736E+02
5.512000000000000E-02 2.561999949484930E+02
5.565000000000000E-02 2.553789758828212E+02
5.618000000000000E-02 2.545622968296117E+02
5.671000000000000E-02 2.537499226455201E+02
5.724000000000000E-02 2.529418185407177E+02
5.776999999999999E-02 2.521379500750459E+02
5.830000000000000E-02 2.513382831542164E+02
5.883000000000000E-02 2.505427840260517E+02
5.936000000000000E-02 2.497514192767683E+02
5.989000000000000E-02 2.489641558273008E+02
6.041999999999999E-02 2.481809609296676E+02
6.095000000000000E-02 2.474018021633767E+02
6.148000000000000E-02 2.466266474318711E+02
6.201000000000000E-02 2.458554649590147E+02
6.254000000000000E-02 2.450882232856166E+02
6.307000000000000E-02 2.443248912659944E+02
6.360000000000000E-02 2.435654380645755E+02
6.412999999999999E-02 2.428098331525368E+02
6.466000000000000E-02 2.420580463044807E+02
6.519000000000000E-02 2.413100475951497E+02
6.572000000000000E-02 2.405658073961758E+02
6.625000000000000E-02 2.398252963728675E+02
6.677999999999999E-02 2.390884854810315E+02
6.730999999999999E-02 2.383553459638308E+02
6.784000000000000E-02 2.376258493486764E+02
6.837000000000000E-02 2.368999674441550E+02
6.890000000000000E-02 2.361776723369896E+02
6.942999999999999E-02 2.354589363890353E+02
6.995999999999999E-02 2.347437322343067E+02
7.049000000000000E-02 2.340320327760401E+02
7.102000000000000E-02 2.333238111837872E+02
7.155000000000000E-02 2.326190408905417E+02
7.207999999999999E-02 2.319176955898976E+02
7.260999999999999E-02 2.312197492332391E+02
7.314000000000000E-02 2.305251760269615E+02
7.367000000000000E-02 2.298339504297238E+02
7.420000000000000E-02 2.291460471497305E+02
7.472999999999999E-02 2.284614411420452E+02
7.525999999999999E-02 2.277801076059324E+02
7.579000000000000E-02 2.271020219822298E+02
7.632000000000000E-02 2.264271599507501E+02
7.685000000000000E-02 2.257554974277104E+02
7.737999999999999E-02 2.250870105631913E+02
7.790999999999999E-02 2.244216757386237E+02
7.844000000000000E-02 2.237594695643037E+02
7.897000000000000E-02 2.231003688769344E+02
7.950000000000000E-02 2.224443507371964E+02
8.003000000000000E-02 2.217913924273438E+02
8.055999999999999E-02 2.211414714488275E+02
8.109000000000000E-02 2.204945655199452E+02
8.162000000000000E-02 2.198506525735167E+02
8.215000000000000E-02 2.192097107545856E+02
8.268000000000000E-02 2.185717184181465E+02
8.320999999999999E-02 2.179366541268965E+02
8.373999999999999E-02 2.173044966490131E+02
8.427000000000000E-02 2.166752249559553E+02
8.480000000000000E-02 2.160488182202904E+02
8.533000000000000E-02 2.154252558135437E+02
8.585999999999999E-02 2.148045173040723E+02
8.638999999999999E-02 2.141865824549636E+02
8.692000000000000E-02 2.135714312219554E+02
8.745000000000000E-02 2.129590437513803E+02
8.798000000000000E-02 2.123494003781317E+02
8.850999999999999E-02 2.117424816236541E+02
8.903999999999999E-02 2.111382681939536E+02
8.957000000000000E-02 2.105367409776320E+02
9.010000000000000E-02 2.099378810439416E+02
9.063000000000000E-02 2.093416696408626E+02
9.115999999999999E-02 2.087480881932006E+02
9.168999999999999E-02 2.081571183007061E+02
9.222000000000000E-02 2.075687417362143E+02
9.275000000000000E-02 2.069829404438058E+02
9.328000000000000E-02 2.063996965369871E+02
9.380999999999999E-02 2.058189922968920E+02
9.433999999999999E-02 2.052408101705023E+02
9.487000000000000E-02 2.046651327688884E+02
9.540000000000000E-02 2.040919428654692E+02
9.593000000000000E-02 2.035212233942918E+02
9.645999999999999E-02 2.029529574483288E+02
9.698999999999999E-02 2.023871282777968E+02
9.752000000000000E-02 2.018237192884906E+02
9.805000000000000E-02 2.012627140401384E+02
9.858000000000000E-02 2.007040962447733E+02
9.910999999999999E-02 2.001478497651241E+02
9.963999999999999E-02 1.995939586130228E+02
1.001700000000000E-01 1.990424069478303E+02
1.007000000000000E-01 1.984931790748797E+02
1.012300000000000E-01 1.979462594439361E+02
1.017600000000000E-01 1.974016326476737E+02
1.022900000000000E-01 1.968592834201701E+02
1.028200000000000E-01 1.963191966354164E+02
1.033500000000000E-01 1.957813573058447E+02
1.038800000000000E-01 1.952457505808708E+02
1.044100000000000E-01 1.947123617454540E+02
1.049400000000000E-01 1.941811762186720E+02
1.054700000000000E-01 1.936521795523117E+02
1.060000000000000E-01 1.931253574294760E+02
1.065300000000000E-01 1.926006956632052E+02
1.070600000000000E-01 1.920781801951143E+02
1.075900000000000E-01 1.915577970940448E+02
1.081200000000000E-01 1.910395325547315E+02
1.086500000000000E-01 1.905233728964841E+02
1.091800000000000E-01 1.900093045618834E+02
1.097100000000000E-01 1.894973141154913E+02
1.102400000000000E-01 1.889873882425757E+02
1.107700000000000E-01 1.884795137478491E+02
1.113000000000000E-01 1.879736775542210E+02
1.118300000000000E-01 1.874698667015643E+02
1.123600000000000E-01 1.869680683454947E+02
1.128900000000000E-01 1.864682697561645E+02
1.134200000000000E-01 1.859704583170687E+02
1.139500000000000E-01 1.854746215238646E+02
1.144800000000000E-01 1.849807469832045E+02
1.150100000000000E-01 1.844888224115815E+02
1.155400000000000E-01 1.839988356341866E+02
1.160700000000000E-01 1.835107745837803E+02
1.166000000000000E-01 1.830246272995755E+02
1.171300000000000E-01 1.825403819261321E+02
1.176600000000000E-01 1.820580267122655E+02
1.181900000000000E-01 1.815775500099651E+02
1.187200000000000E-01 1.810989402733264E+02
1.192500000000000E-01 1.806221860574932E+02
1.197800000000000E-01 1.801472760176129E+02
1.203100000000000E-01 1.796741989078025E+02
1.208400000000000E-01 1.792029435801253E+02
1.213700000000000E-01 1.787334989835808E+02
1.219000000000000E-01 1.782658541631031E+02
1.224300000000000E-01 1.777999982585725E+02
1.229600000000000E-01 1.773359205038367E+02
1.234900000000000E-01 1.768736102257430E+02
1.240200000000000E-01 1.764130568431811E+02
1.245500000000000E-01 1.759542498661369E+02
1.250800000000000E-01 1.754971788947553E+02
1.256100000000000E-01 1.750418336184149E+02
1.261400000000000E-01 1.745882038148118E+02
1.266700000000000E-01 1.741362793490538E+02
1.272000000000000E-01 1.736860501727641E+02
1.277300000000000E-01 1.732375063231953E+02
1.282600000000000E-01 1.727906379223531E+02
1.287900000000000E-01 1.723454351761287E+02
1.293200000000000E-01 1.719018883734423E+02
1.298500000000000E-01 1.714599878853941E+02
1.303800000000000E-01 1.710197241644261E+02
1.309100000000000E-01 1.705810877434920E+02
1.314400000000000E-01 1.701440692352370E+02
1.319700000000000E-01 1.697086593311857E+02
1.325000000000000E-01 1.692748488009395E+02
1.330300000000000E-01 1.688426284913830E+02
1.335600000000000E-01 1.684119893258977E+02
1.340900000000000E-01 1.679829223035860E+02
1.346200000000000E-01 1.675554184985026E+02
1.351500000000000E-01 1.671294690588944E+02
1.356800000000000E-01 1.667050652064489E+02
1.362100000000000E-01 1.662821982355507E+02
1.367400000000000E-01 1.658608595125461E+02
1.372700000000000E-01 1.654410404750159E+02
1.378000000000000E-01 1.650227326310555E+02
1.383300000000000E-01 1.646059275585636E+02
1.388600000000000E-01 1.641906169045383E+02
1.393900000000000E-01 1.637767923843804E+02
1.399200000000000E-01 1.633644457812055E+02
1.404500000000000E-01 1.629535689451621E+02
1.409800000000000E-01 1.625441537927581E+02
1.415100000000000E-01 1.621361923061945E+02
1.420400000000000E-01 1.617296765327058E+02
1.425700000000000E-01 1.613245985839083E+02
1.431000000000000E-01 1.609209506351549E+02
1.436300000000000E-01 1.605187249248970E+02
1.441600000000000E-01 1.601179137540538E+02
1.446900000000000E-01 1.597185094853878E+02
1.452200000000000E-01 1.593205045428872E+02
1.457500000000000E-01 1.589238914111558E+02
1.462800000000000E-01 1.585286626348079E+02
1.468100000000000E-01 1.581348108178717E+02
1.473400000000000E-01 1.577423286231974E+02
1.478700000000000E-01 1.573512087718728E+02
1.484000000000000E-01 1.569614440426450E+02
1.489300000000000E-01 1.565730272713482E+02
1.494600000000000E-01 1.561859513503374E+02
1.499900000000000E-01 1.558002092279292E+02
1.505200000000000E-01 1.554157939078476E+02
1.510500000000000E-01 1.550326984486763E+02
1.515800000000000E-01 1.546509159633170E+02
1.521100000000000E-01 1.542704396184530E+02
1.526400000000000E-01 1.538912626340195E+02
1.531700000000000E-01 1.535133782826786E+02
1.537000000000000E-01 1.531367798893009E+02
1.542300000000000E-01 1.527614608304518E+02
1.547600000000000E-01 1.523874145338842E+02
1.552900000000000E-01 1.520146344780359E+02
1.558200000000000E-01 1.516431141915332E+02
1.563500000000000E-01 1.512728472526988E+02
1.568800000000000E-01 1.509038272890665E+02
1.574100000000000E-01 1.505360479768993E+02
1.579400000000000E-01 1.501695030407144E+02
1.584700000000000E-01 1.498041862528121E+02
1.590000000000000E-01 1.494400914328103E+02
1.595300000000000E-01 1.490772124471840E+02
1.600600000000000E-01 1.487155432088095E+02
1.605900000000000E-01 1.483550776765142E+02
1.611200000000000E-01 1.479958098546296E+02
1.616500000000000E-01 1.476377337925514E+02
1.621800000000000E-01 1.472808435843025E+02
1.627100000000000E-01 1.469251333681011E+02
1.632400000000000E-01 1.465705973259342E+02
1.637700000000000E-01 1.462172296831348E+02
1.643000000000000E-01 1.458650247079638E+02
1.648300000000000E-01 1.455139767111968E+02
1.653600000000000E-01 1.451640800457148E+02
1.658900000000000E-01 1.448153291060998E+02
1.664200000000000E-01 1.444677183282342E+02
1.669500000000000E-01 1.441212421889047E+02
1.674800000000000E-01 1.437758952054107E+02
1.680100000000000E-01 1.434316719351765E+02
1.685400000000000E-01 1.430885669753678E+02
1.690700000000000E-01 1.427465749625123E+02
1.696000000000000E-01 1.424056905721244E+02
1.701300000000000E-01 1.420659085183338E+02
1.706600000000000E-01 1.417272235535179E+02
1.711900000000000E-01 1.413896304679386E+02
1.717200000000000E-01 1.410531240893828E+02
1.722500000000000E-01 1.407176992828061E+02
1.727800000000000E-01 1.403833509499813E+02
1.733100000000000E-01 1.400500740291500E+02
1.738400000000000E-01 1.397178634946781E+02
1.743700000000000E-01 1.393867143567146E+02
1.749000000000000E-01 1.390566216608551E+02
1.754300000000000E-01 1.387275804878070E+02
1.759600000000000E-01 1.383995859530609E+02
1.764900000000000E-01 1.380726332065622E+02
1.770200000000000E-01 1.377467174323893E+02
1.775500000000000E-01 1.374218338484337E+02
1.780800000000000E-01 1.370979777060829E+02
1.786100000000000E-01 1.367751442899080E+02
1.791400000000000E-01 1.364533289173542E+02
1.796700000000000E-01 1.361325269384338E+02
1.802000000000000E-01 1.358127337354237E+02
1.807300000000000E-01 1.354939447225649E+02
1.812600000000000E-01 1.351761553457659E+02
1.817900000000000E-01 1.348593610823094E+02
1.823200000000000E-01 1.345435574405614E+02
1.828500000000000E-01 1.342287399596836E+02
1.833800000000000E-01 1.339149042093494E+02
1.839100000000000E-01 1.336020457894621E+02
1.844400000000000E-01 1.332901603298766E+02
1.849700000000000E-01 1.329792434901241E+02
1.855000000000000E-01 1.326692909591386E+02
1.860300000000000E-01 1.323602984549882E+02
1.865600000000000E-01 1.320522617246075E+02
1.870900000000000E-01 1.317451765435338E+02
1.876200000000000E-01 1.314390387156455E+02
1.881500000000000E-01 1.311338440729035E+02
1.886800000000000E-01 1.308295884750956E+02
1.892100000000000E-01 1.305262678095831E+02
1.897400000000000E-01 1.302238779910503E+02
1.902700000000000E-01 1.299224149612565E+02
1.908000000000000E-01 1.296218746887906E+02
1.913300000000000E-01 1.293222531688287E+02
1.918600000000000E-01 1.290235464228934E+02
1.923900000000000E-01 1.287257504986167E+02
1.929200000000000E-01 1.284288614695040E+02
1.934500000000000E-01 1.281328754347020E+02
1.939800000000000E-01 1.278377885187683E+02
1.945100000000000E-01 1.275435968714428E+02
1.950400000000000E-01 1.272502966674230E+02
1.955700000000000E-01 1.269578841061406E+02
1.961000000000000E-01 1.266663554115400E+02
1.966300000000000E-01 1.263757068318605E+02
1.971600000000000E-01 1.260859346394197E+02
1.976900000000000E-01 1.257970351303994E+02
1.982200000000000E-01 1.255090046246336E+02
1.987500000000000E-01 1.252218394653994E+02
1.992800000000000E-01 1.249355360192090E+02
1.998100000000000E-01 1.246500906756048E+02
2.003400000000000E-01 1.243654998469558E+02
2.008700000000000E-01 1.240817599682571E+02
2.014000000000000E-01 1.237988674969303E+02
2.019300000000000E-01 1.235168189126271E+02
2.024600000000000E-01 1.232356107170341E+02
2.029900000000000E-01 1.229552394336800E+02
2.035200000000000E-01 1.226757016077446E+02
2.040500000000000E-01 1.223969938058703E+02
2.045800000000000E-01 1.221191126159747E+02
2.051100000000000E-01 1.218420546470656E+02
2.056400000000000E-01 1.215658165290582E+02
2.061700000000000E-01 1.212903949125935E+02
2.067000000000000E-01 1.210157864688590E+02
2.072300000000000E-01 1.207419878894114E+02
2.077600000000000E-01 1.204689958860007E+02
2.082900000000000E-01 1.201968071903961E+02
2.088200000000000E-01 1.199254185542141E+02
2.093500000000000E-01 1.196548267487486E+02
2.098800000000000E-01 1.193850285648010E+02
2.104100000000000E-01 1.191160208125150E+02
2.109400000000000E-01 1.188478003212098E+02
2.114700000000000E-01 1.185803639392178E+02
2.120000000000000E-01 1.183137085337221E+02
2.125300000000000E-01 1.180478309905969E+02
2.130600000000000E-01 1.177827282142482E+02
2.135900000000000E-01 1.175183971274576E+02
2.141200000000000E-01 1.172548346712268E+02
2.146500000000000E-01 1.169920378046236E+02
2.151800000000000E-01 1.167300035046299E+02
2.157100000000000E-01 1.164687287659911E+02
2.162400000000000E-01 1.162082106010671E+02
2.167700000000000E-01 1.159484460396844E+02
2.173000000000000E-01 1.156894321289905E+02
2.178300000000000E-01 1.154311659333087E+02
2.183600000000000E-01 1.151736445339957E+02
2.188900000000000E-01 1.149168650292990E+02
2.194200000000000E-01 1.146608245342174E+02
2.199500000000000E-01 1.144055201803621E+02
2.204800000000000E-01 1.141509491158186E+02
2.210100000000000E-01 1.138971085050116E+02
2.215400000000000E-01 1.136439955285694E+02
2.220700000000000E-01 1.133916073831913E+02
2.226000000000000E-01 1.131399412815153E+02
2.231300000000000E-01 1.128889944519872E+02
2.236600000000000E-01 1.126387641387320E+02
2.241900000000000E-01 1.123892476014249E+02
2.247200000000000E-01 1.121404421151655E+02
2.252500000000000E-01 1.118923449703516E+02
2.257800000000000E-01 1.116449534725551E+02
2.263100000000000E-01 1.113982649423995E+02
2.268400000000000E-01 1.111522767154375E+02
2.273700000000000E-01 1.109069861420307E+02
2.279000000000000E-01 1.106623905872305E+02
2.284300000000000E-01 1.104184874306597E+02
2.289600000000000E-01 1.101752740663955E+02
2.294900000000000E-01 1.099327479028537E+02
2.300200000000000E-01 1.096909063626745E+02
2.305500000000000E-01 1.094497468826081E+02
2.310800000000000E-01 1.092092669134031E+02
2.316100000000000E-01 1.089694639196951E+02
2.321400000000000E-01 1.087303353798959E+02
2.326700000000000E-01 1.084918787860854E+02
2.332000000000000E-01 1.082540916439029E+02
2.337300000000000E-01 1.080169714724402E+02
2.342600000000000E-01 1.077805158041362E+02
2.347900000000000E-01 1.075447221846715E+02
2.353200000000000E-01 1.073095881728649E+02
2.358500000000000E-01 1.070751113405708E+02
2.363800000000000E-01 1.068412892725770E+02
2.369100000000000E-01 1.066081195665042E+02
2.374400000000000E-01 1.063755998327063E+02
2.379700000000000E-01 1.061437276941712E+02
2.385000000000000E-01 1.059125007864235E+02
2.390300000000000E-01 1.056819167574272E+02
2.395600000000000E-01 1.054519732674903E+02
