# Electron density for H:
#  R (A) Electron density 
0.000000000000000E+00 0.000000000000000E+00
5.999999999999999E-04 4.185209570091206E-04
1.200000000000000E-03 1.670102272515121E-03
1.800000000000000E-03 3.748792697486985E-03
2.400000000000000E-03 6.648669007650721E-03
3.000000000000000E-03 1.036383589433531E-02
3.600000000000000E-03 1.488842585569920E-02
4.200000000000000E-03 2.021659908833619E-02
4.800000000000000E-03 2.634254337925936E-02
5.399999999999999E-03 3.326047399826192E-02
5.999999999999999E-03 4.096463359065374E-02
6.599999999999999E-03 4.944929207037228E-02
7.200000000000000E-03 5.870874651346683E-02
7.800000000000000E-03 6.873732105195460E-02
8.399999999999999E-03 7.952936676804782E-02
8.999999999999999E-03 9.107926158875033E-02
9.599999999999999E-03 1.033814101808227E-01
1.020000000000000E-02 1.164302438461142E-01
1.080000000000000E-02 1.302202204172614E-01
1.140000000000000E-02 1.447458241537511E-01
1.200000000000000E-02 1.600015656383471E-01
1.260000000000000E-02 1.759819816738792E-01
1.320000000000000E-02 1.926816351803941E-01
1.380000000000000E-02 2.100951150926657E-01
1.440000000000000E-02 2.282170362580649E-01
1.500000000000000E-02 2.470420393347863E-01
1.560000000000000E-02 2.665647906904330E-01
1.620000000000000E-02 2.867799823009556E-01
1.680000000000000E-02 3.076823316499457E-01
1.740000000000000E-02 3.292665816282830E-01
1.800000000000000E-02 3.515275004341339E-01
1.860000000000000E-02 3.744598814733016E-01
1.920000000000000E-02 3.980585432599252E-01
1.980000000000000E-02 4.223183293175273E-01
2.040000000000000E-02 4.472341080804102E-01
2.100000000000000E-02 4.728007727953971E-01
2.160000000000000E-02 4.990132414239188E-01
2.220000000000000E-02 5.258664565444452E-01
2.280000000000000E-02 5.533553852552586E-01
2.340000000000000E-02 5.814750190775698E-01
2.400000000000000E-02 6.102203738589744E-01
2.460000000000000E-02 6.395864896772484E-01
2.520000000000000E-02 6.695684307444828E-01
2.580000000000000E-02 7.001612853115562E-01
2.640000000000000E-02 7.313601655729417E-01
2.700000000000000E-02 7.631602075718508E-01
2.760000000000000E-02 7.955565711057107E-01
2.820000000000000E-02 8.285444396319751E-01
2.880000000000000E-02 8.621190201742654E-01
2.940000000000000E-02 8.962755432288452E-01
3.000000000000000E-02 9.310092626714215E-01
3.060000000000000E-02 9.663154556642780E-01
3.120000000000000E-02 1.002189422563734E+00
3.179999999999999E-02 1.038626486827927E+00
3.240000000000000E-02 1.075621994924929E+00
3.299999999999999E-02 1.113171316241179E+00
3.360000000000000E-02 1.151269842990240E+00
3.419999999999999E-02 1.189912990121885E+00
3.480000000000000E-02 1.229096195231494E+00
3.539999999999999E-02 1.268814918469783E+00
3.600000000000000E-02 1.309064642452838E+00
3.659999999999999E-02 1.349840872172480E+00
3.720000000000000E-02 1.391139134906941E+00
3.779999999999999E-02 1.432954980131856E+00
3.840000000000000E-02 1.475283979431573E+00
3.900000000000000E-02 1.518121726410769E+00
3.960000000000000E-02 1.561463836606390E+00
4.020000000000000E-02 1.605305947399899E+00
4.080000000000000E-02 1.649643717929824E+00
4.140000000000000E-02 1.694472829004640E+00
4.200000000000000E-02 1.739788983015929E+00
4.260000000000000E-02 1.785587903851877E+00
4.320000000000000E-02 1.831865336811057E+00
4.380000000000000E-02 1.878617048516529E+00
4.440000000000000E-02 1.925838826830239E+00
4.500000000000000E-02 1.973526480767727E+00
4.559999999999999E-02 2.021675840413134E+00
4.620000000000000E-02 2.070282756834509E+00
4.679999999999999E-02 2.119343101999425E+00
4.740000000000000E-02 2.168852768690885E+00
4.799999999999999E-02 2.218807670423530E+00
4.860000000000000E-02 2.269203741360155E+00
4.919999999999999E-02 2.320036936228502E+00
4.980000000000000E-02 2.371303230238368E+00
5.039999999999999E-02 2.422998618998993E+00
5.100000000000000E-02 2.475119118436760E+00
5.159999999999999E-02 2.527660764713164E+00
5.220000000000000E-02 2.580619614143096E+00
5.279999999999999E-02 2.633991743113401E+00
5.340000000000000E-02 2.687773248001740E+00
5.399999999999999E-02 2.741960245095726E+00
5.460000000000000E-02 2.796548870512368E+00
5.519999999999999E-02 2.851535280117778E+00
5.580000000000000E-02 2.906915649447192E+00
5.639999999999999E-02 2.962686173625246E+00
5.700000000000000E-02 3.018843067286565E+00
5.760000000000000E-02 3.075382564496615E+00
5.819999999999999E-02 3.132300918672847E+00
5.880000000000000E-02 3.189594402506126E+00
5.939999999999999E-02 3.247259307882427E+00
6.000000000000000E-02 3.305291945804828E+00
6.059999999999999E-02 3.363688646315766E+00
6.120000000000000E-02 3.422445758419585E+00
6.179999999999999E-02 3.481559650005347E+00
6.240000000000000E-02 3.541026707769936E+00
6.300000000000000E-02 3.600843337141417E+00
6.359999999999999E-02 3.661005962202689E+00
6.419999999999999E-02 3.721511025615400E+00
6.480000000000000E-02 3.782354988544133E+00
6.540000000000000E-02 3.843534330580872E+00
6.599999999999999E-02 3.905045549669732E+00
6.659999999999999E-02 3.966885162031966E+00
6.720000000000000E-02 4.029049702091229E+00
6.780000000000000E-02 4.091535722399121E+00
6.839999999999999E-02 4.154339793560990E+00
6.899999999999999E-02 4.217458504162017E+00
6.960000000000000E-02 4.280888460693535E+00
7.020000000000000E-02 4.344626287479644E+00
7.079999999999999E-02 4.408668626604070E+00
7.139999999999999E-02 4.473012137837309E+00
7.199999999999999E-02 4.537653498563998E+00
7.260000000000000E-02 4.602589403710576E+00
7.319999999999999E-02 4.667816565673199E+00
7.379999999999999E-02 4.733331714245908E+00
7.439999999999999E-02 4.799131596549058E+00
7.500000000000000E-02 4.865212976958009E+00
7.559999999999999E-02 4.931572637032062E+00
7.619999999999999E-02 4.998207375443672E+00
7.679999999999999E-02 5.065114007907894E+00
7.740000000000000E-02 5.132289367112093E+00
7.800000000000000E-02 5.199730302645909E+00
7.859999999999999E-02 5.267433680931470E+00
7.919999999999999E-02 5.335396385153866E+00
7.980000000000000E-02 5.403615315191858E+00
8.040000000000000E-02 5.472087387548848E+00
8.099999999999999E-02 5.540809535284098E+00
8.159999999999999E-02 5.609778707944198E+00
8.220000000000000E-02 5.678991871494776E+00
8.280000000000000E-02 5.748446008252450E+00
8.339999999999999E-02 5.818138116817050E+00
8.399999999999999E-02 5.888065212004059E+00
8.459999999999999E-02 5.958224324777307E+00
8.520000000000000E-02 6.028612502181907E+00
8.579999999999999E-02 6.099226807277448E+00
8.639999999999999E-02 6.170064319071412E+00
8.699999999999999E-02 6.241122132452828E+00
8.760000000000000E-02 6.312397358126193E+00
8.819999999999999E-02 6.383887122545604E+00
8.879999999999999E-02 6.455588567849146E+00
8.939999999999999E-02 6.527498851793510E+00
9.000000000000000E-02 6.599615147688852E+00
9.059999999999999E-02 6.671934644333883E+00
9.119999999999999E-02 6.744454545951205E+00
9.179999999999999E-02 6.817172072122867E+00
9.240000000000000E-02 6.890084457726167E+00
9.299999999999999E-02 6.963188952869684E+00
9.359999999999999E-02 7.036482822829543E+00
9.419999999999999E-02 7.109963347985898E+00
9.480000000000000E-02 7.183627823759675E+00
9.539999999999998E-02 7.257473560549513E+00
9.599999999999999E-02 7.331497883668960E+00
9.659999999999999E-02 7.405698133283883E+00
9.719999999999999E-02 7.480071664350104E+00
9.780000000000000E-02 7.554615846551277E+00
9.839999999999999E-02 7.629328064236977E+00
9.899999999999999E-02 7.704205716361023E+00
9.959999999999999E-02 7.779246216420026E+00
1.002000000000000E-01 7.854446992392149E+00
1.008000000000000E-01 7.929805486676106E+00
1.014000000000000E-01 8.005319156030378E+00
1.020000000000000E-01 8.080985471512642E+00
1.026000000000000E-01 8.156801918419440E+00
1.032000000000000E-01 8.232765996226043E+00
1.038000000000000E-01 8.308875218526563E+00
1.044000000000000E-01 8.385127112974258E+00
1.050000000000000E-01 8.461519221222071E+00
1.056000000000000E-01 8.538049098863382E+00
1.062000000000000E-01 8.614714315372975E+00
1.068000000000000E-01 8.691512454048224E+00
1.074000000000000E-01 8.768441111950489E+00
1.080000000000000E-01 8.845497899846729E+00
1.086000000000000E-01 8.922680442151346E+00
1.092000000000000E-01 8.999986376868200E+00
1.098000000000000E-01 9.077413355532874E+00
1.104000000000000E-01 9.154959043155147E+00
1.110000000000000E-01 9.232621118161660E+00
1.116000000000000E-01 9.310397272338800E+00
1.122000000000000E-01 9.388285210775798E+00
1.128000000000000E-01 9.466282651808038E+00
1.134000000000000E-01 9.544387326960567E+00
1.140000000000000E-01 9.622596980891807E+00
1.146000000000000E-01 9.700909371337486E+00
1.152000000000000E-01 9.779322269054775E+00
1.158000000000000E-01 9.857833457766622E+00
1.164000000000000E-01 9.936440734106293E+00
1.170000000000000E-01 1.001514190756212E+01
1.176000000000000E-01 1.009393480042244E+01
1.182000000000000E-01 1.017281724772076E+01
1.188000000000000E-01 1.025178709718113E+01
1.194000000000000E-01 1.033084220916365E+01
1.200000000000000E-01 1.040998045661024E+01
1.206000000000000E-01 1.048919972499065E+01
1.212000000000000E-01 1.056849791224852E+01
1.218000000000000E-01 1.064787292874784E+01
1.224000000000000E-01 1.072732269721939E+01
1.230000000000000E-01 1.080684515270758E+01
1.236000000000000E-01 1.088643824251734E+01
1.242000000000000E-01 1.096609992616130E+01
1.248000000000000E-01 1.104582817530708E+01
1.254000000000000E-01 1.112562097372488E+01
1.260000000000000E-01 1.120547631723513E+01
1.266000000000000E-01 1.128539221365648E+01
1.272000000000000E-01 1.136536668275385E+01
1.278000000000000E-01 1.144539775618680E+01
1.284000000000000E-01 1.152548347745794E+01
1.290000000000000E-01 1.160562190186169E+01
1.296000000000000E-01 1.168581109643311E+01
1.302000000000000E-01 1.176604913989697E+01
1.308000000000000E-01 1.184633412261704E+01
1.314000000000000E-01 1.192666414654545E+01
1.320000000000000E-01 1.200703732517239E+01
1.326000000000000E-01 1.208745178347593E+01
1.332000000000000E-01 1.216790565787193E+01
1.338000000000000E-01 1.224839709616435E+01
1.344000000000000E-01 1.232892425749553E+01
1.350000000000000E-01 1.240948531229678E+01
1.356000000000000E-01 1.249007844223912E+01
1.362000000000000E-01 1.257070184018419E+01
1.368000000000000E-01 1.265135371013536E+01
1.374000000000000E-01 1.273203226718906E+01
1.380000000000000E-01 1.281273573748615E+01
1.386000000000000E-01 1.289346235816368E+01
1.392000000000000E-01 1.297421037730662E+01
1.398000000000000E-01 1.305497805389994E+01
1.404000000000000E-01 1.313576365778079E+01
1.410000000000000E-01 1.321656546959081E+01
1.416000000000000E-01 1.329738178072873E+01
1.422000000000000E-01 1.337821089330306E+01
1.428000000000000E-01 1.345905112008500E+01
1.434000000000000E-01 1.353990078446153E+01
1.440000000000000E-01 1.362075822038858E+01
1.446000000000000E-01 1.370162177234457E+01
1.452000000000000E-01 1.378248979528389E+01
1.458000000000000E-01 1.386336065459077E+01
1.464000000000000E-01 1.394423272603314E+01
1.470000000000000E-01 1.402510439571678E+01
1.476000000000000E-01 1.410597406003962E+01
1.482000000000000E-01 1.418684012564617E+01
1.488000000000000E-01 1.426770100938217E+01
1.494000000000000E-01 1.434855513824937E+01
1.500000000000000E-01 1.442940094936050E+01
1.506000000000000E-01 1.451023688989441E+01
1.512000000000000E-01 1.459106141705138E+01
1.518000000000000E-01 1.467187299800859E+01
1.524000000000000E-01 1.475267010987574E+01
1.530000000000000E-01 1.483345123965088E+01
1.536000000000000E-01 1.491421488417634E+01
1.542000000000000E-01 1.499495955009494E+01
1.548000000000000E-01 1.507568375380623E+01
1.554000000000000E-01 1.515638602142295E+01
1.560000000000000E-01 1.523706488872772E+01
1.566000000000000E-01 1.531771890112977E+01
1.572000000000000E-01 1.539834661362191E+01
1.578000000000000E-01 1.547894659073769E+01
1.584000000000000E-01 1.555951740650861E+01
1.590000000000000E-01 1.564005764442161E+01
1.596000000000000E-01 1.572056589737665E+01
1.602000000000000E-01 1.580104076764447E+01
1.608000000000000E-01 1.588148086682452E+01
1.614000000000000E-01 1.596188481580301E+01
1.620000000000000E-01 1.604225124471118E+01
1.626000000000000E-01 1.612257879288369E+01
1.632000000000000E-01 1.620286610881710E+01
1.638000000000000E-01 1.628311185012872E+01
1.644000000000000E-01 1.636331468351532E+01
1.650000000000000E-01 1.644347328471225E+01
1.656000000000000E-01 1.652358633845258E+01
1.662000000000000E-01 1.660365253842639E+01
1.668000000000000E-01 1.668367058724035E+01
1.674000000000000E-01 1.676363919637726E+01
1.680000000000000E-01 1.684355708615585E+01
1.686000000000000E-01 1.692342298569082E+01
1.692000000000000E-01 1.700323563285278E+01
1.698000000000000E-01 1.708299377422862E+01
1.704000000000000E-01 1.716269616508182E+01
1.710000000000000E-01 1.724234156931307E+01
1.716000000000000E-01 1.732192875942088E+01
1.722000000000000E-01 1.740145651646251E+01
1.728000000000000E-01 1.748092363001490E+01
1.734000000000000E-01 1.756032889813584E+01
1.740000000000000E-01 1.763967112732523E+01
1.746000000000000E-01 1.771894913248659E+01
1.752000000000000E-01 1.779816173688852E+01
1.758000000000000E-01 1.787730777212655E+01
1.764000000000000E-01 1.795638607808495E+01
1.770000000000000E-01 1.803539550289874E+01
1.776000000000000E-01 1.811433490291593E+01
1.782000000000000E-01 1.819320314265971E+01
1.788000000000000E-01 1.827199909479103E+01
1.794000000000000E-01 1.835072164007108E+01
1.800000000000000E-01 1.842936966732412E+01
1.806000000000000E-01 1.850794207340032E+01
1.812000000000000E-01 1.858643776313877E+01
1.818000000000000E-01 1.866485564933067E+01
1.824000000000000E-01 1.874319465268261E+01
1.830000000000000E-01 1.882145370178006E+01
1.836000000000000E-01 1.889963173305089E+01
1.842000000000000E-01 1.897772769072915E+01
1.848000000000000E-01 1.905574052681890E+01
1.854000000000000E-01 1.913366920105822E+01
1.860000000000000E-01 1.921151268088336E+01
1.866000000000000E-01 1.928926994139301E+01
1.872000000000000E-01 1.936693996531271E+01
1.878000000000000E-01 1.944452174295937E+01
1.884000000000000E-01 1.952201427220604E+01
1.890000000000000E-01 1.959941655844664E+01
1.896000000000000E-01 1.967672761456099E+01
1.902000000000000E-01 1.975394646087983E+01
1.908000000000000E-01 1.983107212515010E+01
1.914000000000000E-01 1.990810364250031E+01
1.920000000000000E-01 1.998504005540596E+01
1.926000000000000E-01 2.006188041365523E+01
1.932000000000000E-01 2.013862377431474E+01
1.938000000000000E-01 2.021526920169537E+01
1.944000000000000E-01 2.029181576731838E+01
1.950000000000000E-01 2.036826254988147E+01
1.956000000000000E-01 2.044460863522515E+01
1.962000000000000E-01 2.052085311629904E+01
1.968000000000000E-01 2.059699509312855E+01
1.974000000000000E-01 2.067303367278141E+01
1.980000000000000E-01 2.074896796933460E+01
1.986000000000000E-01 2.082479710384118E+01
1.992000000000000E-01 2.090052020429740E+01
1.998000000000000E-01 2.097613640560985E+01
2.004000000000000E-01 2.105164484956281E+01
2.010000000000000E-01 2.112704468478565E+01
2.016000000000000E-01 2.120233506672041E+01
2.022000000000000E-01 2.127751515758948E+01
2.028000000000000E-01 2.135258412636344E+01
2.034000000000000E-01 2.142754114872894E+01
2.040000000000000E-01 2.150238540705684E+01
2.046000000000000E-01 2.157711609037034E+01
2.052000000000000E-01 2.165173239431331E+01
2.058000000000000E-01 2.172623352111872E+01
2.064000000000000E-01 2.180061867957720E+01
2.070000000000000E-01 2.187488708500571E+01
2.076000000000000E-01 2.194903795921637E+01
2.082000000000000E-01 2.202307053048530E+01
2.088000000000000E-01 2.209698403352178E+01
2.094000000000000E-01 2.217077770943731E+01
2.100000000000000E-01 2.224445080571496E+01
2.106000000000000E-01 2.231800257617873E+01
2.112000000000000E-01 2.239143228096310E+01
2.118000000000000E-01 2.246473918648264E+01
2.124000000000000E-01 2.253792256540180E+01
2.130000000000000E-01 2.261098169660478E+01
2.136000000000000E-01 2.268391586516550E+01
2.142000000000000E-01 2.275672436231775E+01
2.148000000000000E-01 2.282940648542539E+01
2.154000000000000E-01 2.290196153795268E+01
2.160000000000000E-01 2.297438882943482E+01
2.166000000000000E-01 2.304668767544842E+01
2.172000000000000E-01 2.311885739758227E+01
2.178000000000000E-01 2.319089732340810E+01
2.184000000000000E-01 2.326280678645152E+01
2.190000000000000E-01 2.333458512616308E+01
2.196000000000000E-01 2.340623168788937E+01
2.202000000000000E-01 2.347774582284429E+01
2.208000000000000E-01 2.354912688808049E+01
2.214000000000000E-01 2.362037424646074E+01
2.220000000000000E-01 2.369148726662963E+01
2.226000000000000E-01 2.376246532298524E+01
2.232000000000000E-01 2.383330779565096E+01
2.238000000000000E-01 2.390401407044741E+01
2.244000000000000E-01 2.397458353886454E+01
2.250000000000000E-01 2.404501559803370E+01
2.256000000000000E-01 2.411530965069997E+01
2.262000000000000E-01 2.418546510519450E+01
2.268000000000000E-01 2.425548137540698E+01
2.274000000000000E-01 2.432535788075828E+01
2.280000000000000E-01 2.439509404617306E+01
2.286000000000000E-01 2.446468930205269E+01
2.292000000000000E-01 2.453414308424806E+01
2.298000000000000E-01 2.460345483403263E+01
2.304000000000000E-01 2.467262399807561E+01
2.310000000000000E-01 2.474165002841511E+01
2.316000000000000E-01 2.481053238243151E+01
2.322000000000000E-01 2.487927052282096E+01
2.328000000000000E-01 2.494786391756881E+01
2.334000000000000E-01 2.501631203992338E+01
2.340000000000000E-01 2.508461436836966E+01
2.346000000000000E-01 2.515277038660316E+01
2.352000000000000E-01 2.522077958350392E+01
2.358000000000000E-01 2.528864145311056E+01
2.364000000000000E-01 2.535635549459441E+01
2.370000000000000E-01 2.542392121223387E+01
2.376000000000000E-01 2.549133811538873E+01
2.382000000000000E-01 2.555860571847463E+01
2.388000000000000E-01 2.562572354093769E+01
2.394000000000000E-01 2.569269110722916E+01
2.400000000000000E-01 2.575950794678023E+01
2.406000000000000E-01 2.582617359397688E+01
2.412000000000000E-01 2.589268758813487E+01
2.418000000000000E-01 2.595904947347483E+01
2.424000000000000E-01 2.602525879909748E+01
2.430000000000000E-01 2.609131511895882E+01
2.436000000000000E-01 2.615721799184558E+01
2.442000000000000E-01 2.622296698135069E+01
2.448000000000000E-01 2.628856165584885E+01
2.454000000000000E-01 2.635400158847216E+01
2.460000000000000E-01 2.641928635708598E+01
2.466000000000000E-01 2.648441554426471E+01
2.472000000000000E-01 2.654938873726781E+01
2.478000000000000E-01 2.661420552801583E+01
2.484000000000000E-01 2.667886551306660E+01
2.490000000000000E-01 2.674336829359144E+01
2.496000000000000E-01 2.680771347535153E+01
2.502000000000000E-01 2.687190066867439E+01
2.508000000000000E-01 2.693592948843030E+01
2.514000000000000E-01 2.699979955400909E+01
2.520000000000000E-01 2.706351048929675E+01
2.526000000000000E-01 2.712706192265225E+01
2.532000000000000E-01 2.719045348688455E+01
2.538000000000000E-01 2.725368481922950E+01
2.544000000000000E-01 2.731675556132699E+01
2.550000000000000E-01 2.737966535919812E+01
2.556000000000000E-01 2.744241386322249E+01
2.562000000000000E-01 2.750500072811559E+01
2.568000000000000E-01 2.756742561290623E+01
2.574000000000000E-01 2.762968818091411E+01
2.580000000000000E-01 2.769178809972748E+01
2.586000000000000E-01 2.775372504118088E+01
2.592000000000000E-01 2.781549868133292E+01
2.598000000000000E-01 2.787710870044424E+01
2.604000000000000E-01 2.793855478295552E+01
2.610000000000000E-01 2.799983661746555E+01
2.616000000000000E-01 2.806095389670943E+01
2.622000000000000E-01 2.812190631753682E+01
2.628000000000000E-01 2.818269358089031E+01
2.634000000000000E-01 2.824331539178391E+01
2.640000000000000E-01 2.830377145928151E+01
2.646000000000000E-01 2.836406149647557E+01
2.652000000000000E-01 2.842418522046576E+01
2.658000000000000E-01 2.848414235233783E+01
2.664000000000000E-01 2.854393261714247E+01
2.670000000000000E-01 2.860355574387423E+01
2.675999999999999E-01 2.866301146545062E+01
2.682000000000000E-01 2.872229951869124E+01
2.688000000000000E-01 2.878141964429702E+01
2.694000000000000E-01 2.884037158682949E+01
2.700000000000000E-01 2.889915509469021E+01
2.706000000000000E-01 2.895776992010022E+01
2.712000000000000E-01 2.901621581907961E+01
