#  Pair interaction function for Fe:
#  R (A) Energy (eV) 
0.000000000000000E+00 9.734841037599350E+03
5.999999999999999E-04 9.673496597477757E+03
1.200000000000000E-03 9.612804288613865E+03
1.800000000000000E-03 9.552754716063359E+03
2.400000000000000E-03 9.493338636775115E+03
3.000000000000000E-03 9.434546957044800E+03
3.600000000000000E-03 9.376370730011628E+03
4.200000000000000E-03 9.318801153197546E+03
4.800000000000000E-03 9.261829566088103E+03
5.399999999999999E-03 9.205447447754323E+03
5.999999999999999E-03 9.149646414514847E+03
6.599999999999999E-03 9.094418217637718E+03
7.200000000000000E-03 9.039754741081058E+03
7.800000000000000E-03 8.985647999272052E+03
8.399999999999999E-03 8.932090134923532E+03
8.999999999999999E-03 8.879073416887550E+03
9.599999999999999E-03 8.826590238045314E+03
1.020000000000000E-02 8.774633113232834E+03
1.080000000000000E-02 8.723194677201729E+03
1.140000000000000E-02 8.672267682614534E+03
1.200000000000000E-02 8.621844998073972E+03
1.260000000000000E-02 8.571919606185584E+03
1.320000000000000E-02 8.522484601653165E+03
1.380000000000000E-02 8.473533189406424E+03
1.440000000000000E-02 8.425058682760375E+03
1.500000000000000E-02 8.377054501605846E+03
1.560000000000000E-02 8.329514170630628E+03
1.620000000000000E-02 8.282431317570747E+03
1.680000000000000E-02 8.235799671491301E+03
1.740000000000000E-02 8.189613061096408E+03
1.800000000000000E-02 8.143865413067748E+03
1.860000000000000E-02 8.098550750431206E+03
1.920000000000000E-02 8.053663190951167E+03
1.980000000000000E-02 8.009196945551957E+03
2.040000000000000E-02 7.965146316765986E+03
2.100000000000000E-02 7.921505697208161E+03
2.160000000000000E-02 7.878269568076083E+03
2.220000000000000E-02 7.835432497675602E+03
2.280000000000000E-02 7.792989139971331E+03
2.340000000000000E-02 7.750934233161638E+03
2.400000000000000E-02 7.709262598277762E+03
2.460000000000000E-02 7.667969137806588E+03
2.520000000000000E-02 7.627048834336718E+03
2.580000000000000E-02 7.586496749227419E+03
2.640000000000000E-02 7.546308021300081E+03
2.700000000000000E-02 7.506477865551772E+03
2.760000000000000E-02 7.467001571890551E+03
2.820000000000000E-02 7.427874503892134E+03
2.880000000000000E-02 7.389092097577581E+03
2.940000000000000E-02 7.350649860211628E+03
3.000000000000000E-02 7.312543369121306E+03
3.060000000000000E-02 7.274768270534546E+03
3.120000000000000E-02 7.237320278438370E+03
3.179999999999999E-02 7.200195173456373E+03
3.240000000000000E-02 7.163388801745166E+03
3.299999999999999E-02 7.126897073909447E+03
3.360000000000000E-02 7.090715963935398E+03
3.419999999999999E-02 7.054841508142067E+03
3.480000000000000E-02 7.019269804150474E+03
3.539999999999999E-02 6.983997009870103E+03
3.600000000000000E-02 6.949019342502500E+03
3.659999999999999E-02 6.914333077561685E+03
3.720000000000000E-02 6.879934547911093E+03
3.779999999999999E-02 6.845820142816764E+03
3.840000000000000E-02 6.811986307016500E+03
3.900000000000000E-02 6.778429539804729E+03
3.960000000000000E-02 6.745146394132793E+03
4.020000000000000E-02 6.712133475724424E+03
4.080000000000000E-02 6.679387442206108E+03
4.140000000000000E-02 6.646905002252147E+03
4.200000000000000E-02 6.614682914744096E+03
4.260000000000000E-02 6.582717987944396E+03
4.320000000000000E-02 6.551007078683914E+03
4.380000000000000E-02 6.519547091563190E+03
4.440000000000000E-02 6.488334978167136E+03
4.500000000000000E-02 6.457367736292949E+03
4.559999999999999E-02 6.426642409191066E+03
4.620000000000000E-02 6.396156084818869E+03
4.679999999999999E-02 6.365905895106976E+03
4.740000000000000E-02 6.335889015237877E+03
4.799999999999999E-02 6.306102662936731E+03
4.860000000000000E-02 6.276544097774077E+03
4.919999999999999E-02 6.247210620480305E+03
4.980000000000000E-02 6.218099572271651E+03
5.039999999999999E-02 6.189208334187535E+03
5.100000000000000E-02 6.160534326439055E+03
5.159999999999999E-02 6.132075007768430E+03
5.220000000000000E-02 6.103827874819222E+03
5.279999999999999E-02 6.075790461517160E+03
5.340000000000000E-02 6.047960338461354E+03
5.399999999999999E-02 6.020335112325760E+03
5.460000000000000E-02 5.992912425270704E+03
5.519999999999999E-02 5.965689954364293E+03
5.580000000000000E-02 5.938665411013544E+03
5.639999999999999E-02 5.911836540405096E+03
5.700000000000000E-02 5.885201120955277E+03
5.760000000000000E-02 5.858756963769446E+03
5.819999999999999E-02 5.832501912110396E+03
5.880000000000000E-02 5.806433840875685E+03
5.939999999999999E-02 5.780550656083746E+03
6.000000000000000E-02 5.754850294368617E+03
6.059999999999999E-02 5.729330722483162E+03
6.120000000000000E-02 5.703989936810612E+03
6.179999999999999E-02 5.678825962884311E+03
6.240000000000000E-02 5.653836854915525E+03
6.300000000000000E-02 5.629020695329151E+03
6.359999999999999E-02 5.604375594307224E+03
6.419999999999999E-02 5.579899689340081E+03
6.480000000000000E-02 5.555591144785036E+03
6.540000000000000E-02 5.531448151432458E+03
6.599999999999999E-02 5.507468926079122E+03
6.659999999999999E-02 5.483651711108703E+03
6.720000000000000E-02 5.459994774079297E+03
6.780000000000000E-02 5.436496407317853E+03
6.839999999999999E-02 5.413154927521386E+03
6.899999999999999E-02 5.389968675364881E+03
6.960000000000000E-02 5.366936015115743E+03
7.020000000000000E-02 5.344055334254713E+03
7.079999999999999E-02 5.321325043103105E+03
7.139999999999999E-02 5.298743574456304E+03
7.199999999999999E-02 5.276309383223371E+03
7.260000000000000E-02 5.254020946072687E+03
7.319999999999999E-02 5.231876761083511E+03
7.379999999999999E-02 5.209875347403359E+03
7.439999999999999E-02 5.188015244911130E+03
7.500000000000000E-02 5.166295013885816E+03
7.559999999999999E-02 5.144713234680799E+03
7.619999999999999E-02 5.123268507403531E+03
7.679999999999999E-02 5.101959451600599E+03
7.740000000000000E-02 5.080784705948035E+03
7.800000000000000E-02 5.059742927946789E+03
7.859999999999999E-02 5.038832793623280E+03
7.919999999999999E-02 5.018052997234949E+03
7.980000000000000E-02 4.997402250980712E+03
8.040000000000000E-02 4.976879284716251E+03
8.099999999999999E-02 4.956482845674032E+03
8.159999999999999E-02 4.936211698188006E+03
8.220000000000000E-02 4.916064623422883E+03
8.280000000000000E-02 4.896040419107907E+03
8.339999999999999E-02 4.876137899275089E+03
8.399999999999999E-02 4.856355894001772E+03
8.459999999999999E-02 4.836693249157481E+03
8.520000000000000E-02 4.817148826154997E+03
8.579999999999999E-02 4.797721501705559E+03
8.639999999999999E-02 4.778410167578139E+03
8.699999999999999E-02 4.759213730362719E+03
8.760000000000000E-02 4.740131111237493E+03
8.819999999999999E-02 4.721161245739949E+03
8.879999999999999E-02 4.702303083541737E+03
8.939999999999999E-02 4.683555588227287E+03
9.000000000000000E-02 4.664917737076092E+03
9.059999999999999E-02 4.646388520848610E+03
9.119999999999999E-02 4.627966943575702E+03
9.179999999999999E-02 4.609652022351584E+03
9.240000000000000E-02 4.591442787130186E+03
9.299999999999999E-02 4.573338280524907E+03
9.359999999999999E-02 4.555337557611663E+03
9.419999999999999E-02 4.537439685735228E+03
9.480000000000000E-02 4.519643744318740E+03
9.539999999999998E-02 4.501948824676394E+03
9.599999999999999E-02 4.484354029829222E+03
9.659999999999999E-02 4.466858474323903E+03
9.719999999999999E-02 4.449461284054595E+03
9.780000000000000E-02 4.432161596087692E+03
9.839999999999999E-02 4.414958558489483E+03
9.899999999999999E-02 4.397851330156651E+03
9.959999999999999E-02 4.380839080649581E+03
1.002000000000000E-01 4.363920990028401E+03
1.008000000000000E-01 4.347096248691751E+03
1.014000000000000E-01 4.330364057218182E+03
1.020000000000000E-01 4.313723626210193E+03
1.026000000000000E-01 4.297174176140828E+03
1.032000000000000E-01 4.280714937202793E+03
1.038000000000000E-01 4.264345149160071E+03
1.044000000000000E-01 4.248064061201961E+03
1.050000000000000E-01 4.231870931799538E+03
1.056000000000000E-01 4.215765028564460E+03
1.062000000000000E-01 4.199745628110093E+03
1.068000000000000E-01 4.183812015914929E+03
1.074000000000000E-01 4.167963486188239E+03
1.080000000000000E-01 4.152199341737932E+03
1.086000000000000E-01 4.136518893840583E+03
1.092000000000000E-01 4.120921462113596E+03
1.098000000000000E-01 4.105406374389458E+03
1.104000000000000E-01 4.089972966592048E+03
1.110000000000000E-01 4.074620582614993E+03
1.116000000000000E-01 4.059348574201987E+03
1.122000000000000E-01 4.044156300829090E+03
1.128000000000000E-01 4.029043129588945E+03
1.134000000000000E-01 4.014008435076882E+03
1.140000000000000E-01 3.999051599278895E+03
1.146000000000000E-01 3.984172011461440E+03
1.152000000000000E-01 3.969369068063032E+03
1.158000000000000E-01 3.954642172587613E+03
1.164000000000000E-01 3.939990735499664E+03
1.170000000000000E-01 3.925414174121015E+03
1.176000000000000E-01 3.910911912529346E+03
1.182000000000000E-01 3.896483381458338E+03
1.188000000000000E-01 3.882128018199452E+03
1.194000000000000E-01 3.867845266505287E+03
1.200000000000000E-01 3.853634576494546E+03
1.206000000000000E-01 3.839495404558508E+03
1.212000000000000E-01 3.825427213269043E+03
1.218000000000000E-01 3.811429471288111E+03
1.224000000000000E-01 3.797501653278727E+03
1.230000000000000E-01 3.783643239817381E+03
1.236000000000000E-01 3.769853717307862E+03
1.242000000000000E-01 3.756132577896487E+03
1.248000000000000E-01 3.742479319388699E+03
1.254000000000000E-01 3.728893445167016E+03
1.260000000000000E-01 3.715374464110306E+03
1.266000000000000E-01 3.701921890514364E+03
1.272000000000000E-01 3.688535244013771E+03
1.278000000000000E-01 3.675214049505017E+03
1.284000000000000E-01 3.661957837070867E+03
1.290000000000000E-01 3.648766141905929E+03
1.296000000000000E-01 3.635638504243448E+03
1.302000000000000E-01 3.622574469283251E+03
1.308000000000000E-01 3.609573587120873E+03
1.314000000000000E-01 3.596635412677804E+03
1.320000000000000E-01 3.583759505632869E+03
1.326000000000000E-01 3.570945430354705E+03
1.332000000000000E-01 3.558192755835324E+03
1.338000000000000E-01 3.545501055624734E+03
1.344000000000000E-01 3.532869907766616E+03
1.350000000000000E-01 3.520298894735023E+03
1.356000000000000E-01 3.507787603372101E+03
1.362000000000000E-01 3.495335624826793E+03
1.368000000000000E-01 3.482942554494535E+03
1.374000000000000E-01 3.470607991957903E+03
1.380000000000000E-01 3.458331540928220E+03
1.386000000000000E-01 3.446112809188075E+03
1.392000000000000E-01 3.433951408534784E+03
1.398000000000000E-01 3.421846954724720E+03
1.404000000000000E-01 3.409799067418548E+03
1.410000000000000E-01 3.397807370127332E+03
1.416000000000000E-01 3.385871490159486E+03
1.422000000000000E-01 3.373991058568572E+03
1.428000000000000E-01 3.362165710101922E+03
1.434000000000000E-01 3.350395083150088E+03
1.440000000000000E-01 3.338678819697071E+03
1.446000000000000E-01 3.327016565271349E+03
1.452000000000000E-01 3.315407968897680E+03
1.458000000000000E-01 3.303852683049659E+03
1.464000000000000E-01 3.292350363603030E+03
1.470000000000000E-01 3.280900669789729E+03
1.476000000000000E-01 3.269503264152651E+03
1.482000000000000E-01 3.258157812501131E+03
1.488000000000000E-01 3.246863983867122E+03
1.494000000000000E-01 3.235621450462065E+03
1.500000000000000E-01 3.224429887634431E+03
1.506000000000000E-01 3.213288973827930E+03
1.512000000000000E-01 3.202198390540377E+03
1.518000000000000E-01 3.191157822283195E+03
1.524000000000000E-01 3.180166956541561E+03
1.530000000000000E-01 3.169225483735163E+03
1.536000000000000E-01 3.158333097179578E+03
1.542000000000000E-01 3.147489493048247E+03
1.548000000000000E-01 3.136694370335043E+03
1.554000000000000E-01 3.125947430817424E+03
1.560000000000000E-01 3.115248379020153E+03
1.566000000000000E-01 3.104596922179583E+03
1.572000000000000E-01 3.093992770208501E+03
1.578000000000000E-01 3.083435635661509E+03
1.584000000000000E-01 3.072925233700946E+03
1.590000000000000E-01 3.062461282063330E+03
1.596000000000000E-01 3.052043501026327E+03
1.602000000000000E-01 3.041671613376227E+03
1.608000000000000E-01 3.031345344375909E+03
1.614000000000000E-01 3.021064421733319E+03
1.620000000000000E-01 3.010828575570419E+03
1.626000000000000E-01 3.000637538392612E+03
1.632000000000000E-01 2.990491045058647E+03
1.638000000000000E-01 2.980388832750975E+03
1.644000000000000E-01 2.970330640946554E+03
1.650000000000000E-01 2.960316211388122E+03
1.656000000000000E-01 2.950345288055879E+03
1.662000000000000E-01 2.940417617139629E+03
1.668000000000000E-01 2.930532947011320E+03
1.674000000000000E-01 2.920691028198027E+03
1.680000000000000E-01 2.910891613355321E+03
1.686000000000000E-01 2.901134457241065E+03
1.692000000000000E-01 2.891419316689583E+03
1.698000000000000E-01 2.881745950586244E+03
1.704000000000000E-01 2.872114119842413E+03
1.710000000000000E-01 2.862523587370787E+03
1.716000000000000E-01 2.852974118061100E+03
1.722000000000000E-01 2.843465478756197E+03
1.728000000000000E-01 2.833997438228463E+03
1.734000000000000E-01 2.824569767156612E+03
1.740000000000000E-01 2.815182238102818E+03
1.746000000000000E-01 2.805834625490192E+03
1.752000000000000E-01 2.796526705580591E+03
1.758000000000000E-01 2.787258256452770E+03
1.764000000000000E-01 2.778029057980842E+03
1.770000000000000E-01 2.768838891813075E+03
1.776000000000000E-01 2.759687541350993E+03
1.782000000000000E-01 2.750574791728792E+03
1.788000000000000E-01 2.741500429793065E+03
1.794000000000000E-01 2.732464244082818E+03
1.800000000000000E-01 2.723466024809786E+03
1.806000000000000E-01 2.714505563839041E+03
1.812000000000000E-01 2.705582654669886E+03
1.818000000000000E-01 2.696697092417022E+03
1.824000000000000E-01 2.687848673792001E+03
1.830000000000000E-01 2.679037197084952E+03
1.836000000000000E-01 2.670262462146562E+03
1.842000000000000E-01 2.661524270370334E+03
1.848000000000000E-01 2.652822424675096E+03
1.854000000000000E-01 2.644156729487767E+03
1.860000000000000E-01 2.635526990726378E+03
1.866000000000000E-01 2.626933015783329E+03
1.872000000000000E-01 2.618374613508900E+03
1.878000000000000E-01 2.609851594194994E+03
1.884000000000000E-01 2.601363769559116E+03
1.890000000000000E-01 2.592910952728589E+03
1.896000000000000E-01 2.584492958224981E+03
1.902000000000000E-01 2.576109601948778E+03
1.908000000000000E-01 2.567760701164262E+03
1.914000000000000E-01 2.559446074484607E+03
1.920000000000000E-01 2.551165541857194E+03
1.926000000000000E-01 2.542918924549128E+03
1.932000000000000E-01 2.534706045132970E+03
1.938000000000000E-01 2.526526727472665E+03
1.944000000000000E-01 2.518380796709670E+03
1.950000000000000E-01 2.510268079249285E+03
1.956000000000000E-01 2.502188402747166E+03
1.962000000000000E-01 2.494141596096046E+03
1.968000000000000E-01 2.486127489412618E+03
1.974000000000000E-01 2.478145914024630E+03
1.980000000000000E-01 2.470196702458138E+03
1.986000000000000E-01 2.462279688424953E+03
1.992000000000000E-01 2.454394706810252E+03
1.998000000000000E-01 2.446541593660376E+03
2.004000000000000E-01 2.438720186170777E+03
2.010000000000000E-01 2.430930322674158E+03
2.016000000000000E-01 2.423171842628756E+03
2.022000000000000E-01 2.415444586606794E+03
2.028000000000000E-01 2.407748396283100E+03
2.034000000000000E-01 2.400083114423873E+03
2.040000000000000E-01 2.392448584875604E+03
2.046000000000000E-01 2.384844652554159E+03
2.052000000000000E-01 2.377271163433998E+03
2.058000000000000E-01 2.369727964537550E+03
2.064000000000000E-01 2.362214903924732E+03
2.070000000000000E-01 2.354731830682608E+03
2.076000000000000E-01 2.347278594915187E+03
2.082000000000000E-01 2.339855047733365E+03
2.088000000000000E-01 2.332461041244997E+03
2.094000000000000E-01 2.325096428545110E+03
2.100000000000000E-01 2.317761063706234E+03
2.106000000000000E-01 2.310454801768883E+03
2.112000000000000E-01 2.303177498732142E+03
2.118000000000000E-01 2.295929011544396E+03
2.124000000000000E-01 2.288709198094173E+03
2.130000000000000E-01 2.281517917201116E+03
2.136000000000000E-01 2.274355028607068E+03
2.142000000000000E-01 2.267220392967278E+03
2.148000000000000E-01 2.260113871841726E+03
2.154000000000000E-01 2.253035327686553E+03
2.160000000000000E-01 2.245984623845615E+03
2.166000000000000E-01 2.238961624542145E+03
2.172000000000000E-01 2.231966194870513E+03
2.178000000000000E-01 2.224998200788108E+03
2.184000000000000E-01 2.218057509107318E+03
2.190000000000000E-01 2.211143987487617E+03
2.196000000000000E-01 2.204257504427750E+03
2.202000000000000E-01 2.197397929258025E+03
2.208000000000000E-01 2.190565132132697E+03
2.214000000000000E-01 2.183758984022460E+03
2.220000000000000E-01 2.176979356707023E+03
2.226000000000000E-01 2.170226122767791E+03
2.232000000000000E-01 2.163499155580633E+03
2.238000000000000E-01 2.156798329308745E+03
2.244000000000000E-01 2.150123518895601E+03
2.250000000000000E-01 2.143474600057998E+03
2.256000000000000E-01 2.136851449279184E+03
2.262000000000000E-01 2.130253943802068E+03
2.268000000000000E-01 2.123681961622530E+03
2.274000000000000E-01 2.117135381482802E+03
2.280000000000000E-01 2.110614082864930E+03
2.286000000000000E-01 2.104117945984332E+03
2.292000000000000E-01 2.097646851783413E+03
2.298000000000000E-01 2.091200681925289E+03
2.304000000000000E-01 2.084779318787555E+03
2.310000000000000E-01 2.078382645456158E+03
2.316000000000000E-01 2.072010545719326E+03
2.322000000000000E-01 2.065662904061582E+03
2.328000000000000E-01 2.059339605657826E+03
2.334000000000000E-01 2.053040536367493E+03
2.340000000000000E-01 2.046765582728772E+03
2.346000000000000E-01 2.040514631952913E+03
2.352000000000000E-01 2.034287571918582E+03
2.358000000000000E-01 2.028084291166297E+03
2.364000000000000E-01 2.021904678892927E+03
2.370000000000000E-01 2.015748624946256E+03
2.376000000000000E-01 2.009616019819615E+03
2.382000000000000E-01 2.003506754646571E+03
2.388000000000000E-01 1.997420721195684E+03
2.394000000000000E-01 1.991357811865327E+03
2.400000000000000E-01 1.985317919678564E+03
2.406000000000000E-01 1.979300938278087E+03
2.412000000000000E-01 1.973306761921213E+03
2.418000000000000E-01 1.967335285474945E+03
2.424000000000000E-01 1.961386404411081E+03
2.430000000000000E-01 1.955460014801385E+03
2.436000000000000E-01 1.949556013312815E+03
2.442000000000000E-01 1.943674297202802E+03
2.448000000000000E-01 1.937814764314584E+03
2.454000000000000E-01 1.931977313072598E+03
2.460000000000000E-01 1.926161842477916E+03
2.466000000000000E-01 1.920368252103740E+03
2.472000000000000E-01 1.914596442090947E+03
2.478000000000000E-01 1.908846313143680E+03
2.484000000000000E-01 1.903117766524994E+03
2.490000000000000E-01 1.897410704052546E+03
2.496000000000000E-01 1.891725028094337E+03
2.502000000000000E-01 1.886060641564500E+03
2.508000000000000E-01 1.880417447919134E+03
2.514000000000000E-01 1.874795351152183E+03
2.520000000000000E-01 1.869194255791367E+03
2.526000000000000E-01 1.863614066894147E+03
2.532000000000000E-01 1.858054690043744E+03
2.538000000000000E-01 1.852516031345198E+03
2.544000000000000E-01 1.846997997421465E+03
2.550000000000000E-01 1.841500495409565E+03
2.556000000000000E-01 1.836023432956766E+03
2.562000000000000E-01 1.830566718216812E+03
2.568000000000000E-01 1.825130259846183E+03
2.574000000000000E-01 1.819713967000414E+03
2.580000000000000E-01 1.814317749330430E+03
2.586000000000000E-01 1.808941516978937E+03
2.592000000000000E-01 1.803585180576843E+03
2.598000000000000E-01 1.798248651239720E+03
2.604000000000000E-01 1.792931840564304E+03
2.610000000000000E-01 1.787634660625026E+03
2.616000000000000E-01 1.782357023970585E+03
2.622000000000000E-01 1.777098843620556E+03
2.628000000000000E-01 1.771860033062030E+03
2.634000000000000E-01 1.766640506246294E+03
2.640000000000000E-01 1.761440177585534E+03
2.646000000000000E-01 1.756258961949590E+03
2.652000000000000E-01 1.751096774662726E+03
2.658000000000000E-01 1.745953531500445E+03
2.664000000000000E-01 1.740829148686330E+03
2.670000000000000E-01 1.735723542888919E+03
2.675999999999999E-01 1.730636631218611E+03
2.682000000000000E-01 1.725568331224605E+03
2.688000000000000E-01 1.720518560891869E+03
2.694000000000000E-01 1.715487238638135E+03
2.700000000000000E-01 1.710474283310929E+03
2.706000000000000E-01 1.705479614184629E+03
2.712000000000000E-01 1.700503150957552E+03
